1.016036552019139227e+00
7.294339506599651912e-01
1.700035936764436040e-01
-2.541497411731711287e-01
-3.987400852790941030e-01
-3.307432705576230925e-01
-2.105233205672880636e-01
-1.334861991737269771e-01
-1.035534634885895144e-01
-8.747719138627324531e-02
-7.276921492437486705e-02
-5.431334699416620615e-02
-3.182447473368195390e-02
-4.279569630638579980e-03
2.891122865429767916e-02
6.791264038233540967e-02
1.124726364056886085e-01
1.625842854163980500e-01
2.159645373349846631e-01
2.693184720000390553e-01
3.196037957773785187e-01
3.640339608643287095e-01
4.000952705362628703e-01
4.255078476637683127e-01
4.382386273481307937e-01
4.364515441885505331e-01
4.191311826944008612e-01
3.891600204635773386e-01
3.498951259769184641e-01
3.043855191401725890e-01
2.553721712839981395e-01
2.052929959630533374e-01
1.564256505853546808e-01
1.109085931035898864e-01
7.058145846809080193e-02
3.690500753917181492e-02
1.001403431200915614e-02
-1.079964046285356027e-02
-2.619315334043712321e-02
-3.675137398924889498e-02
-4.298690519128156584e-02
-4.534208872563333381e-02
-4.439538515532029384e-02
-4.100140526096857085e-02
-3.593299839797392536e-02
-2.982074020509983131e-02
-2.305265743868564060e-02
-1.601979969785007757e-02
-9.088619764915397553e-03
-2.598481088606996448e-03
3.138342215947220737e-03
7.836695194025862510e-03
1.130777613546161964e-02
1.360708827032469648e-02
1.485969241297331600e-02
1.510366032405605768e-02
1.490703704732486423e-02
1.546728228629460494e-02
1.814768987253541008e-02
2.447533106559979937e-02
3.614105455302182857e-02
5.499948645031774164e-02
8.365720244834229380e-02
1.222080410733760725e-01
1.627487906907265358e-01
1.981978662408147018e-01
2.230609795239215376e-01
2.334319478058204389e-01
2.269926938177767306e-01
2.030578020378328297e-01
1.662315014296217586e-01
1.267540293251079864e-01
9.288054962206729326e-02
6.938583294205634411e-02
5.799110235362431309e-02
5.853181658053648040e-02
6.706158755088409418e-02
6.968677373072078296e-02
5.331938203833515300e-02
6.641314972012909990e-03
-5.289088365154283322e-02
2.993710265351001709e-02
3.410709173097052349e-01
8.338725162549367464e-01
1.233630826543010928e+00
1.127422360854370753e+00
5.962276947796764093e-01
6.422143087061037148e-02
-2.065527004540799183e-01
-2.189023365611677818e-01
-1.259045732772971771e-01
-4.884470066886723028e-02
-1.736183182917043835e-02
-4.846213017130243661e-03
1.948954105683020632e-03
1.129699226349588359e-02
2.812079743558990735e-02
5.399283885630223878e-02
8.713610004439294177e-02
1.257310994996410636e-01
1.702192328014240086e-01
2.194326149704541873e-01
2.715068608260195471e-01
3.241416113787545794e-01
3.749859319131241264e-01
4.215464207126774498e-01
4.607973113955219358e-01
4.896295546227170115e-01
5.060248706987482414e-01
5.090614745913617512e-01
4.989140759315638385e-01
4.768538790136207517e-01
4.450968754011357942e-01
4.062663695143522435e-01
3.638506415073665123e-01
3.208255587510472906e-01
2.795470620190106947e-01
2.417511663726970572e-01
2.085539611613788369e-01
1.804516100221544850e-01
1.574674514883945553e-01
1.389880288454468094e-01
1.235982290752560275e-01
1.100208973411737901e-01
9.758970511827799732e-02
8.597160663231821764e-02
7.498588100918815447e-02
6.464897837485740484e-02
5.509060685921050166e-02
4.654284004366059796e-02
3.934011696114920326e-02
3.393749392310974750e-02
3.095462766931764836e-02
3.077897494528575306e-02
3.329743806967336295e-02
3.808398288763248374e-02
4.477994424855918920e-02
5.310333757604600302e-02
6.284885886788191267e-02
7.388788469605213349e-02
8.616847220673903851e-02
9.971349492945028037e-02
1.145011818302383577e-01
1.324875603560847770e-01
1.559583537728926883e-01
1.864291706251808012e-01
2.245185689050700484e-01
2.698863017690526500e-01
3.214627990184455442e-01
3.728188884637754774e-01
4.138734704530662722e-01
4.373670949547130427e-01
4.390196514069316658e-01
4.175322438568675465e-01
3.747919467056957110e-01
3.174858540637708337e-01
2.555423075906804731e-01
1.965982220149406490e-01
1.455298546469471765e-01
1.044528053789750832e-01
7.272201668517934425e-02
4.916984072999540378e-02
1.849673120808506196e-02
-4.480845698878433564e-02
-1.239875425301095319e-01
-1.624663429992762032e-01
-1.551466085396210892e-02
4.016992284966778293e-01
9.253027756729377273e-01
1.161508416982262704e+00
8.706089292305585481e-01
3.107135634139339686e-01
-1.112741391757368498e-01
-2.532285286039788197e-01
-1.825856635575275333e-01
-5.679487025564534941e-02
2.859282696819083827e-02
7.016827647341522534e-02
9.161140309925489000e-02
1.068664210838297934e-01
1.240611339149845782e-01
1.455097305880396208e-01
1.686783049622216368e-01
1.939878233208701952e-01
2.218735544736767373e-01
2.524491610773819117e-01
2.855833786216546155e-01
3.206519220133676740e-01
3.567148310968727420e-01
3.909412801294263606e-01
4.205902829095305995e-01
4.434047270047393741e-01
4.576113671214733225e-01
4.619208251050208047e-01
4.555080624931120981e-01
4.371672151018095587e-01
4.068368893372021344e-01
3.679984521059225799e-01
3.239005948625101050e-01
2.773588942890745646e-01
2.307558122952975688e-01
1.860406960184307623e-01
1.447297778233010979e-01
1.079061753023000669e-01
7.622200188978661695e-02
5.002932440450628265e-02
2.946217016921089116e-02
1.397014879330018070e-02
2.589516351452846032e-03
-5.552607570080698995e-03
-1.123586954972955951e-02
-1.513257989470154219e-02
-1.780430728137213578e-02
-1.970187875528430985e-02
-2.116543454983762021e-02
-2.245222116167075455e-02
-2.378181676918350931e-02
-2.527993829004535065e-02
-2.710264819874341757e-02
-2.944208802024654570e-02
-3.244105745557923637e-02
-3.619156730155577428e-02
-4.073483945077910340e-02
-4.606130689164161102e-02
-5.211061370832463513e-02
-5.871014370002537730e-02
-6.538091789732677905e-02
-7.117418095833935587e-02
-7.414713490226060300e-02
-7.227453867758595885e-02
-6.355155127589660891e-02
-4.598802574066071513e-02
-1.753901954607167690e-02
2.171940024389673596e-02
6.676519854751167271e-02
1.118896867228083569e-01
1.507931415877468428e-01
1.768090184979375923e-01
1.832064723197194267e-01
1.688193046135152975e-01
1.400885382057145412e-01
1.034778919759883620e-01
6.491987313741709453e-02
2.981577723647740874e-02
2.818152836591467092e-03
-1.543291316017808557e-02
-2.490590254104504270e-02
-3.118804473825781409e-02
-4.737686822048639557e-02
-9.354002432660865618e-02
-1.627369194764157478e-01
-1.777721387844075907e-01
-2.098750652284429863e-02
3.836711496334476723e-01
9.053809540553889867e-01
1.144738770053275179e+00
8.570952318048173924e-01
2.887163085646097249e-01
-1.583718312502509773e-01
-3.289094947399162638e-01
-2.826013643524512564e-01
-1.727189568189102242e-01
-9.575720957600572514e-02
-6.560355371613121878e-02
-5.477079518550255488e-02
-4.474856007409816483e-02
-2.928333764274781634e-02
-9.190951049448007476e-03
1.643144501299030266e-02
4.769810446490820727e-02
8.439609012746814021e-02
1.260134198966983976e-01
1.723916987661697764e-01
2.212326696275357107e-01
2.693832350308522083e-01
3.137905255071001820e-01
3.516581829456632002e-01
3.808433121942096378e-01
3.994255930874879290e-01
4.055849240130928179e-01
3.976014219114765713e-01
3.741300241898046219e-01
3.369861242340642105e-01
2.892887070091864077e-01
2.340829573991571044e-01
1.743399164930894696e-01
1.129263240634158089e-01
5.244866508495210633e-02
-4.631645285892244113e-03
-5.592747530573827230e-02
-9.945254491527466545e-02
-1.350684164269861376e-01
-1.632433302597868785e-01
-1.845687572925789610e-01
-1.997042560687180557e-01
-2.093499883849026522e-01
-2.142548554009295891e-01
-2.153007760723643083e-01
-2.134688157386277485e-01
-2.097317347277491417e-01
-2.045884503111256303e-01
-1.984125021241404108e-01
-1.915727621673973813e-01
-1.844040807519483904e-01
-1.772072864992923491e-01
-1.702491863413758966e-01
-1.637581424790512385e-01
-1.578217201164467953e-01
-1.523830766334951514e-01
-1.472790462061792094e-01
-1.425767007039661083e-01
-1.382378042355274506e-01
-1.339036891965556808e-01
-1.288682591422923851e-01
-1.220303336370997804e-01
-1.119791125955316990e-01
-9.724503776330060967e-02
-7.486363281012640980e-02
-4.318213311636516505e-02
-2.602791556658427818e-03
4.443371116686122002e-02
9.347217223146891962e-02
1.379942524695521866e-01
1.693881928702440642e-01
1.815774534097028547e-01
1.719452481034103308e-01
1.412768710751030610e-01
9.506912376293846778e-02
4.177019204107131761e-02
-1.127451207595337596e-02
-5.805348326000241144e-02
-9.536471327227581674e-02
-1.214707029942477812e-01
-1.378564295445198207e-01
-1.515892668528069920e-01
-1.753461427989749799e-01
-2.272207926284119384e-01
-2.887601337948948466e-01
-2.553987680937430116e-01
-2.500334386833910280e-02
4.529321101648323689e-01
9.542346555672018837e-01
1.101263665976842665e+00
7.290166091265846138e-01
1.891063514131283707e-01
-1.761070892609252481e-01
-2.678236962849200320e-01
-1.779506070439990095e-01
-6.192765965817136065e-02
5.611819085668406926e-03
2.675724876481222481e-02
3.327815458168770224e-02
3.663771113561498094e-02
4.130330472095285199e-02
4.856519079974438990e-02
5.941924367417272812e-02
7.516311530093142124e-02
9.652611861840025564e-02
1.234891041561780589e-01
1.553195600620493610e-01
1.909653916231936477e-01
2.285453173853503051e-01
2.645588416014311717e-01
2.958756618880357125e-01
3.198475157556210924e-01
3.343081806084891583e-01
3.375734737447987910e-01
3.284409166336100805e-01
3.056527110197410080e-01
2.705912410134621582e-01
2.270641386840667186e-01
1.784956655208526366e-01
1.279043672609710969e-01
7.790307388944055222e-02
3.069889963913116637e-02
-1.191883114903902197e-02
-4.867159962177206034e-02
-7.874081468901542036e-02
-1.017337186280933697e-01
-1.179990348138466039e-01
-1.287299169226065187e-01
-1.351160329500041835e-01
-1.382407687670348384e-01
-1.390812281200534684e-01
-1.385082326307792155e-01
-1.372863217962912441e-01
-1.360737529890313491e-01
-1.354225007501108358e-01
-1.356899238689655285e-01
-1.367905468629010413e-01
-1.384135564670987972e-01
-1.404055168796122244e-01
-1.426209871656363426e-01
-1.448428087371066153e-01
-1.467821053526999486e-01
-1.480782831178363845e-01
-1.482802764173060117e-01
-1.467802867294307201e-01
-1.429445408198222744e-01
-1.365267816040828808e-01
-1.275587142328221124e-01
-1.145457737380972119e-01
-9.520137428915095845e-02
-6.803420474504891236e-02
-3.235862847176162321e-02
1.170531665783541148e-02
6.342554509595695056e-02
1.190412248026250785e-01
1.686254593840360305e-01
2.043222891597267499e-01
2.211815994311237266e-01
2.170258417783057503e-01
1.924474881437033547e-01
1.513767766850914465e-01
1.025660316149417939e-01
5.400346721118675503e-02
1.116061237240750098e-02
-2.302978999510880975e-02
-4.820015844242988429e-02
-6.594755298438442770e-02
-8.426297075276235893e-02
-1.172719183962185885e-01
-1.815700981178863804e-01
-2.505995876631522123e-01
-2.229749262395977205e-01
1.590992854563028774e-02
4.887071249287271435e-01
9.642448033432229337e-01
1.038375346280539180e+00
6.258148701702361816e-01
8.359594619538671112e-02
-2.517755589724591792e-01
-3.178038081134758608e-01
-2.117502605059730925e-01
-8.854663226761244621e-02
-1.392064614976689513e-02
1.867989750522597303e-02
3.868304631045203779e-02
5.574598598542415684e-02
7.329251676055829889e-02
9.246939342597880473e-02
1.142181148596502632e-01
1.396527863934616254e-01
1.693373233744464024e-01
2.032972042233069376e-01
2.410194704344034156e-01
2.816618441255369643e-01
3.234833204876590429e-01
3.633606782020038506e-01
3.984708982333711735e-01
4.261897049214804500e-01
4.442425104012340253e-01
4.507750491341216970e-01
4.443103431370610812e-01
4.234042582958137957e-01
3.904354222440612476e-01
3.487451939010167146e-01
3.013729837661258681e-01
2.510591518086080498e-01
2.002794945051799835e-01
1.511629270743716780e-01
1.054933273867019183e-01
6.475220236702744492e-02
3.011911052043435982e-02
2.222903782215067056e-03
-1.968037914073603872e-02
-3.663433401585532850e-02
-4.959899364791522935e-02
-5.945107643867596908e-02
-6.697612885200411592e-02
-7.273257205632968625e-02
-7.706963617016276968e-02
-8.024898618343156986e-02
-8.244897268305192983e-02
-8.373719436439361341e-02
-8.398535455390253313e-02
-8.309072074405282615e-02
-8.092907810301933069e-02
-7.734249011939414720e-02
-7.215854478149258400e-02
-6.538168114824141619e-02
-5.715264170735887689e-02
-4.758700506670256875e-02
-3.676662815454451172e-02
-2.474812988670021391e-02
-1.175310666003012705e-02
3.348639129282307558e-03
2.211577712645639016e-02
4.594713505690034561e-02
7.608175063553107575e-02
1.136125052037012528e-01
1.595044075580241971e-01
2.150129667087503638e-01
2.741005535505481872e-01
3.274394384948534076e-01
3.679129320208464060e-01
3.906245346144644470e-01
3.928979367683838597e-01
3.742770189820227023e-01
3.370124394308297022e-01
